Current (mA),Time (ms)
Current (mA),Time (ms)
0.000,95.000
2.976,10291.000
2.848,10562.000
3.011,10835.000
3.239,11107.000
3.445,11381.000
3.612,11654.000
3.745,11926.000
3.854,12196.000
3.944,12467.000
4.018,12737.000
4.079,13010.000
4.127,13282.000
4.157,13553.000
4.170,13824.000
4.167,14095.000
4.150,14365.000
4.126,14636.000
4.093,14908.000
4.054,15180.000
4.014,15451.000
3.976,15722.000
3.938,15995.000
3.895,16263.000
3.853,16536.000
3.813,16811.000
3.774,17082.000
3.734,17352.000
3.695,17624.000
3.657,17894.000
3.620,18167.000
3.586,18438.000
3.556,18709.000
3.529,18979.000
3.504,19252.000
3.480,19526.000
3.460,19797.000
3.439,20070.000
3.418,20340.000
3.396,20611.000
3.377,20884.000
3.359,21157.000
3.341,21427.000
3.321,21698.000
3.301,21969.000
3.279,22245.000
3.259,22517.000
3.239,22787.000
3.224,23057.000
3.207,23328.000
3.192,23599.000
3.178,23871.000
3.162,24142.000
3.146,24412.000
3.130,24682.000
3.121,24952.000
3.108,25223.000
3.104,25496.000
3.097,25767.000
3.085,26038.000
3.077,26311.000
3.067,26581.000
3.059,26853.000
3.056,27124.000
3.049,27397.000
3.042,27668.000
3.035,27939.000
3.032,28208.000
3.031,28480.000
3.028,28753.000
3.028,29025.000
3.026,29296.000
3.020,29567.000
3.019,29838.000
3.015,30109.000
3.009,30382.000
3.000,30653.000
2.995,30923.000
2.994,31195.000
2.987,31464.000
2.986,31736.000
2.986,32008.000
2.987,32279.000
2.985,32549.000
2.982,32820.000
2.978,33092.000
2.987,33365.000
2.988,33639.000
2.990,33911.000
2.993,34182.000
2.997,34452.000
2.991,34724.000
2.992,34995.000
2.987,35268.000
2.990,35540.000
2.992,35815.000
2.993,36086.000
2.994,36356.000
2.992,36627.000
2.987,36900.000
2.993,37171.000
2.990,37444.000
2.986,37715.000
2.989,37988.000
2.984,38260.000
2.980,38533.000
2.984,38805.000
2.985,39077.000
2.983,39347.000
2.989,39619.000
2.995,39889.000
2.992,40162.000
2.988,40435.000
2.986,40705.000
2.992,40976.000
2.994,41248.000
2.995,41520.000
2.996,41791.000
2.996,42064.000
2.999,42335.000
3.012,42607.000
3.015,42876.000
3.017,43146.000
3.015,43418.000
3.011,43689.000
3.016,43961.000
3.033,44233.000
3.031,44501.000
3.033,44774.000
3.038,45046.000
3.038,45319.000
3.039,45591.000
3.048,45866.000
3.055,46138.000
3.060,46408.000
3.061,46679.000
3.064,46949.000
3.065,47221.000
3.071,47489.000
3.077,47760.000
3.092,48031.000
3.096,48302.000
3.098,48575.000
3.105,48846.000
3.108,49118.000
3.112,49390.000
3.117,49663.000
3.126,49935.000
3.138,50206.000
3.141,50479.000
3.150,50749.000
3.153,51021.000
3.161,51292.000
3.173,51565.000
3.178,51837.000
3.173,52108.000
3.173,52380.000
3.187,52652.000
3.194,52923.000
3.195,53194.000
3.194,53466.000
3.206,53741.000
3.211,54013.000
3.227,54284.000
3.243,54558.000
3.260,54830.000
3.281,55104.000
3.287,55378.000
3.291,55649.000
3.301,55922.000
3.311,56193.000
3.315,56465.000
3.314,56738.000
3.327,57008.000
3.342,57280.000
3.353,57551.000
3.357,57826.000
3.360,58099.000
3.369,58371.000
3.375,58643.000
3.370,58913.000
3.365,59185.000
3.368,59455.000
3.380,59726.000
3.384,59998.000
3.416,60268.000
3.422,60540.000
3.417,60811.000
3.417,61084.000
3.420,61356.000
3.426,61628.000
3.436,61899.000
3.457,62168.000
3.459,62440.000
3.465,62710.000
3.468,62982.000
3.473,63252.000
3.481,63525.000
3.490,63794.000
3.501,64067.000
3.500,64340.000
3.512,64611.000
3.531,64884.000
3.542,65156.000
3.554,65427.000
3.561,65697.000
3.588,65970.000
3.612,66241.000
3.608,66511.000
3.609,66782.000
3.610,67054.000
3.615,67324.000
3.633,67597.000
3.641,67867.000
3.661,68138.000
3.672,68411.000
3.683,68682.000
3.684,68955.000
3.695,69226.000
3.693,69498.000
3.704,69769.000
3.711,70041.000
3.741,70313.000
3.742,70585.000
3.744,70857.000
3.738,71130.000
3.736,71401.000
3.735,71673.000
3.739,71945.000
3.735,72217.000
3.750,72487.000
3.750,72759.000
3.756,73028.000
3.788,73299.000
3.792,73570.000
3.819,73841.000
3.833,74112.000
3.837,74384.000
3.870,74655.000
3.894,74927.000
3.890,75198.000
3.898,75471.000
3.906,75744.000
3.908,76015.000
3.920,76285.000
3.928,76557.000
3.935,76827.000
3.956,77100.000
3.981,77372.000
4.003,77642.000
4.000,77914.000
4.007,78187.000
4.034,78461.000
4.038,78734.000
4.046,79008.000
4.054,79278.000
4.051,79549.000
4.030,79820.000
4.073,80089.000
4.095,80362.000
4.115,80632.000
4.123,80903.000
4.142,81174.000
4.131,81446.000
4.159,81717.000
4.185,81989.000
4.213,82260.000
4.216,82530.000
4.207,82802.000
4.210,83074.000
4.205,83347.000
4.205,83619.000
4.217,83891.000
4.229,84163.000
4.241,84437.000
4.252,84707.000
4.252,84978.000
4.278,85250.000
4.324,85523.000
4.346,85795.000
4.371,86064.000
4.385,86337.000
4.396,86609.000
4.401,86880.000
4.422,87152.000
4.424,87424.000
4.430,87697.000
4.441,87970.000
4.458,88240.000
4.507,88511.000
4.466,88782.000
4.496,89056.000
4.520,89327.000
4.528,89598.000
4.545,89868.000
4.537,90139.000
4.584,90408.000
4.589,90680.000
4.605,90950.000
4.621,91222.000
4.613,91494.000
4.624,91765.000
4.606,92035.000
4.644,92305.000
4.643,92577.000
4.651,92847.000
4.639,93119.000
4.680,93390.000
4.682,93662.000
4.728,93934.000
4.813,94209.000
4.857,94479.000
4.875,94749.000
4.854,95020.000
4.860,95291.000
4.893,95560.000
4.879,95830.000
4.872,96100.000
4.901,96373.000
4.893,96644.000
4.967,96915.000
4.976,97188.000
5.019,97458.000
